Day,"Total Fresh Weight
(g/individual)","Standarized TFW
(g/individual)",Temperature (C),Chlorophyll a (µg/l)
1,5.294227829,5.011532919,16,8
2,5.567828518,5.022257311,16,8
3,5.850733744,5.033346415,16,8
4,6.143070805,5.044805221,16,8
5,6.44496561,5.056638665,16,8
6,6.756542708,5.068851627,16,8
7,7.077925321,5.081448939,16,8
8,7.409235382,5.094435379,16,8
9,7.750593562,5.107815677,16,8
10,8.102119301,5.121594516,16,8
11,8.463930839,5.13577653,16,8
12,8.836145243,5.150366308,16,8
13,9.218878435,5.165368393,16,8
14,9.61224522,5.180787285,16,8
15,10.01635931,5.196627442,16,8
16,10.43133334,5.212893279,16,8
17,10.85727893,5.229589171,16,8
18,11.29430664,5.246719451,16,8
19,11.74252606,5.264288416,16,8
20,12.2020458,5.282300321,16,8
21,12.67297351,5.300759388,16,8
22,13.1554159,5.319669799,16,8
23,13.64947879,5.3390357,16,8
24,14.15526707,5.358861205,16,8
25,14.67288479,5.379150391,16,8
26,14.80711948,5.384412021,16,8
27,15.35257396,5.405792331,16,8
28,15.91019716,5.427649622,16,8
29,16.48008953,5.44998783,16,8
30,17.06235072,5.472810862,16,8
31,17.65707961,5.496122594,16,8
32,18.26437433,5.519926871,16,8
33,18.88433226,5.544227511,16,8
34,19.51705005,5.569028303,16,8
35,20.16262366,5.594333006,16,8
36,20.8211483,5.620145355,16,8
37,21.49271853,5.646469055,16,8
38,22.17742822,5.673307786,16,8
39,22.87537058,5.7006652,16,8
40,23.58663814,5.728544925,16,8
41,24.31132282,5.756950565,16,8
42,25.0495159,5.785885697,16,8
43,25.80130803,5.815353874,16,8
44,26.56678926,5.845358626,16,8
45,27.34604904,5.875903459,16,8
46,28.13917622,5.906991856,16,8
47,28.94625909,5.938627277,16,8
48,29.76738534,5.97081316,16,8
49,30.60264213,6.003552921,16,8
50,31.45211604,6.036849955,16,8
51,32.31589313,6.070707633,16,8
52,33.19405891,6.105129308,16,8
53,34.08669837,6.140118312,16,8
54,34.99389596,6.175677954,16,8
55,35.91573565,6.211811526,16,8
56,36.8523009,6.248522299,16,8
57,37.80367465,6.285813525,16,8
58,38.76993938,6.323688436,16,8
59,39.75117707,6.362150246,16,8
60,40.74746924,6.40120215,16,8
61,41.75889693,6.440847324,16,8
62,42.78554071,6.481088927,16,8
63,43.82748074,6.521930101,16,8
64,44.88479667,6.563373968,16,8
65,45.95756776,6.605423634,16,8
66,47.0458728,6.648082189,16,8
67,48.14979016,6.691352703,16,8
68,49.26939781,6.735238233,16,8
69,50.40477326,6.779741818,16,8
70,51.55599364,6.82486648,16,8
71,52.72313566,6.870615226,16,8
72,53.90627562,6.916991048,16,8
73,55.10548943,6.96399692,16,8
74,56.32085262,7.011635804,16,8
75,57.55244032,7.059910643,16,8
76,58.80032727,7.108824368,16,8
77,60.06458786,7.158379894,16,8
78,61.34529608,7.208580122,16,8
79,62.64252558,7.259427939,16,8
80,63.9563496,7.310926215,16,8
81,65.28684108,7.36307781,16,8
82,66.63407256,7.415885566,16,8
83,67.99811626,7.469352315,16,8
84,69.37904403,7.523480873,16,8
85,70.7769274,7.578274043,16,8
86,72.19183753,7.633734616,16,8
87,73.62384528,7.689865369,16,8
88,75.07302117,7.746669064,16,8
89,76.53943539,7.804148455,16,8
90,78.02315779,7.862306279,16,8
91,79.52425793,7.921145262,16,8
92,81.04280505,7.980668119,16,8
93,82.57886805,8.04087755,16,8
94,84.13251556,8.101776245,16,8
95,85.70381588,8.163366881,16,8
96,87.29283701,8.225652125,16,8
97,88.89964666,8.288634629,16,8
98,90.52431224,8.352317037,16,8
99,92.16690087,8.416701978,16,8
100,93.82747937,8.481792073,16,8
101,95.5061143,8.54758993,16,8
102,97.2028719,8.614098146,16,8
103,98.91781817,8.681319307,16,8
104,100.6510188,8.749255989,16,8
105,102.4025392,8.817910756,16,8
106,104.1724446,8.887286162,16,8
107,105.9607998,8.957384751,16,8
108,107.7676694,9.028209055,16,8
109,109.5931179,9.099761597,16,8
110,111.4372092,9.17204489,16,8
111,113.3000073,9.245061436,16,8
112,115.1815758,9.318813726,16,8
113,117.0819779,9.393304244,16,8
114,119.0012767,9.468535462,16,8
115,120.9395351,9.544509843,16,8
116,122.8968157,9.621229839,16,8
117,124.8731807,9.698697895,16,8
118,126.8686923,9.776916444,16,8
119,128.8834124,9.855887911,16,8
120,130.9174025,9.935614711,16,8
121,132.9707241,10.01609925,16,8
122,135.0434383,10.09734393,16,8
123,137.135606,10.17935113,16,8
124,139.247288,10.26212324,16,8
125,141.3785447,10.34566262,16,8
126,143.5294363,10.42997163,16,8
127,145.7000228,10.51505264,16,8
128,147.8903642,10.60090797,16,8
129,150.1005199,10.68753998,16,8
130,152.3305493,10.77495097,16,8
131,154.5805116,10.86314329,16,8
132,156.8504657,10.95211922,16,8
133,159.1404703,11.04188109,16,8
134,161.450584,11.13243117,16,8
135,163.7808651,11.22377176,16,8
136,166.1313717,11.31590513,16,8
137,168.5021616,11.40883355,16,8
138,170.8932927,11.50255929,16,8
139,173.3048223,11.5970846,16,8
140,175.7368079,11.69241172,16,8
141,178.1893064,11.7885429,16,8
142,180.6623749,11.88548036,16,8
143,183.15607,11.98322632,16,8
144,185.6704482,12.08178301,16,8
145,188.2055659,12.18115263,16,8
146,190.7614793,12.28133738,16,8
147,193.3382442,12.38233946,16,8
148,195.9359165,12.48416104,16,8
149,198.5545518,12.58680432,16,8
150,201.1942054,12.69027146,16,8
151,203.8549326,12.79456462,16,8
152,206.5367883,12.89968596,16,8
153,209.2398276,13.00563764,16,8
154,211.964105,13.1124218,16,8
155,214.7096751,13.22004057,16,8
156,217.4765922,13.32849609,16,8
157,220.2649104,13.43779047,16,8
158,223.0746838,13.54792583,16,8
159,225.9059661,13.65890429,16,8
160,228.7588111,13.77072794,16,8
161,231.6332722,13.88339888,16,8
162,234.5294026,13.9969192,16,8
163,237.4472556,14.11129098,16,8
164,240.3868841,14.22651631,16,8
165,243.348341,14.34259725,16,8
166,246.3316789,14.45953586,16,8
167,249.3369503,14.57733421,16,8
168,252.3642075,14.69599433,16,8
169,255.4135027,14.81551829,16,8
170,258.4848879,14.93590812,16,8
171,261.5784151,15.05716585,16,8
172,264.6941358,15.1792935,16,8
173,267.8321016,15.3022931,16,8
174,270.9923641,15.42616667,16,8
175,274.1749743,15.55091621,16,8
176,277.3799834,15.67654372,16,8
177,280.6074423,15.8030512,16,8
178,283.8574019,15.93044065,16,8
179,287.1299127,16.05871404,16,8
180,290.4250253,16.18787337,16,8
181,293.7427901,16.31792059,16,8
182,297.0832572,16.44885768,16,8
183,300.4464768,16.58068661,16,8
184,303.8324986,16.71340932,16,8
185,307.2413726,16.84702778,16,8
186,310.6731484,16.98154392,16,8
187,314.1278754,17.11695968,16,8
188,317.6056031,17.25327701,16,8
189,321.1063806,17.39049783,16,8
190,324.6302571,17.52862406,16,8
191,328.1772814,17.66765763,16,8
192,331.7475024,17.80760044,16,8
193,335.3409688,17.94845441,16,8
194,338.9577292,18.09022143,16,8
195,342.5978319,18.23290341,16,8
196,346.2613252,18.37650224,16,8
197,349.9482572,18.5210198,16,8
198,353.6586761,18.66645798,16,8
199,357.3926296,18.81281866,16,8
200,361.1501656,18.9601037,16,8
201,364.9313316,19.10831497,16,8
202,368.7361752,19.25745434,16,8
203,372.5647437,19.40752366,16,8
204,376.4170845,19.55852479,16,8
205,380.2932445,19.71045957,16,8
206,384.1932709,19.86332984,16,8
207,388.1172106,20.01713745,16,8
208,392.0651101,20.17188422,16,8
209,396.0370163,20.32757198,16,8
210,400.0329756,20.48420256,16,8
211,404.0530345,20.64177777,16,8
212,408.0972391,20.80029943,16,8
213,412.1656356,20.95976935,16,8
214,416.2582702,21.12018933,16,8
215,420.3751886,21.28156117,16,8
216,424.5164367,21.44388667,16,8
217,428.6820603,21.60716762,16,8
218,432.8721048,21.7714058,16,8
219,437.0866157,21.936603,16,8
220,441.3256383,22.10276099,16,8
221,445.589218,22.26988154,16,8
222,449.8773997,22.43796644,16,8
223,454.1902286,22.60701743,16,8
224,458.5277494,22.77703627,16,8
225,462.8900071,22.94802474,16,8
226,467.2770461,23.11998456,16,8
227,471.6889112,23.2929175,16,8
228,476.1256468,23.46682529,16,8
229,480.5872972,23.64170967,16,8
230,485.0739066,23.81757238,16,8
231,489.5855191,23.99441514,16,8
232,494.1221789,24.17223969,16,8
233,498.6839298,24.35104773,16,8
234,503.2708156,24.530841,16,8
235,507.88288,24.7116212,16,8
236,512.5201667,24.89339004,16,8
237,517.1827191,25.07614923,16,8
238,521.8705806,25.25990046,16,8
239,526.5837945,25.44464544,16,8
240,531.322404,25.63038586,16,8
241,536.0864522,25.8171234,16,8
242,540.8759821,26.00485976,16,8
243,545.6910365,26.1935966,16,8
244,550.5316583,26.38333562,16,8
245,555.3978902,26.57407848,16,8
246,560.2897746,26.76582685,16,8
247,565.2073542,26.9585824,16,8
248,570.1506713,27.15234679,16,8
249,575.1197683,27.34712168,16,8
250,580.1146872,27.54290872,16,8
251,585.1354702,27.73970956,16,8
252,590.1821594,27.93752585,16,8
253,595.2547966,28.13635923,16,8
254,600.3534236,28.33621134,16,8
255,605.4780822,28.53708381,16,8
256,610.628814,28.73897829,16,8
257,615.8056606,28.94189638,16,8
258,621.0086633,29.14583973,16,8
259,626.2378636,29.35080995,16,8
260,631.4933026,29.55680866,16,8
261,636.7750216,29.76383747,16,8
262,642.0830617,29.971898,16,8
263,647.4174637,30.18099184,16,8
264,652.7782687,30.3911206,16,8
265,658.1655174,30.60228588,16,8
266,663.5792505,30.81448928,16,8
267,669.0195087,31.02773239,16,8
268,674.4863325,31.2420168,16,8
269,679.9797624,31.45734409,16,8
270,685.4998387,31.67371585,16,8
271,691.0466017,31.89113365,16,8
272,696.6200916,32.10959908,16,8
273,702.2203485,32.32911369,16,8
274,707.8474124,32.54967907,16,8
275,713.5013233,32.77129677,16,8
276,719.182121,32.99396837,16,8
277,724.8898452,33.21769541,16,8
278,730.6245357,33.44247945,16,8
279,736.3862321,33.66832205,16,8
280,742.1749738,33.89522475,16,8
281,747.9908003,34.1231891,16,8
282,753.8337509,34.35221664,16,8
283,759.703865,34.58230891,16,8
284,765.6011816,34.81346745,16,8
285,771.5257399,35.04569379,16,8
286,777.4775789,35.27898945,16,8
287,783.4567376,35.51335598,16,8
288,789.4632549,35.74879488,16,8
289,795.4971694,35.98530767,16,8
290,801.5585199,36.22289589,16,8
291,807.6473451,36.46156103,16,8
292,813.7636834,36.70130462,16,8
293,819.9075733,36.94212815,16,8
294,826.0790533,37.18403313,16,8
295,832.2781616,37.42702107,16,8
296,838.5049365,37.67109347,16,8
297,844.7594161,37.91625181,16,8
298,851.0416385,38.16249759,16,8
299,857.3516417,38.4098323,16,8
300,863.6894637,38.65825743,16,8
301,870.0551422,38.90777447,16,8
302,876.4487151,39.15838488,16,8
303,882.87022,39.41009015,16,8
304,889.3196947,39.66289176,16,8
305,895.7971765,39.91679118,16,8
306,902.3027031,40.17178987,16,8
307,908.8363119,40.4278893,16,8
308,915.39804,40.68509094,16,8
309,921.9879249,40.94339624,16,8
310,928.6060037,41.20280667,16,8
311,935.2523135,41.46332367,16,8
312,941.9268914,41.72494871,16,8
313,948.6297743,41.98768322,16,8
314,955.3609991,42.25152866,16,8
315,962.1206026,42.51648646,16,8
316,968.9086217,42.78255808,16,8
317,975.7250929,43.04974494,16,8
318,982.570053,43.31804849,16,8
319,989.4435384,43.58747015,16,8
320,996.3455857,43.85801135,16,8
321,1003.276231,44.12967353,16,8
322,1010.235511,44.40245811,16,8
323,1017.223462,44.6763665,16,8
324,1024.24012,44.95140013,16,8
325,1031.285521,45.22756041,16,8
326,1038.359702,45.50484876,16,8
327,1045.462697,45.78326659,16,8
328,1052.594544,46.06281531,16,8
329,1059.755278,46.34349631,16,8
330,1066.944935,46.62531101,16,8
331,1074.16355,46.90826081,16,8
332,1081.411159,47.1923471,16,8
333,1088.687799,47.47757128,16,8
334,1095.993503,47.76393474,16,8
335,1103.328309,48.05143888,16,8
336,1110.69225,48.34008507,16,8
337,1118.085363,48.62987471,16,8
338,1125.507684,48.92080917,16,8
339,1132.959246,49.21288984,16,8
340,1140.440085,49.5061181,16,8
341,1147.950236,49.80049532,16,8
342,1155.489735,50.09602286,16,8
343,1163.058616,50.39270212,16,8
344,1170.656915,50.69053444,16,8
345,1178.284665,50.98952119,16,8
346,1185.941902,51.28966375,16,8
347,1193.62866,51.59096346,16,8
348,1201.344974,51.89342169,16,8
349,1209.090879,52.19703979,16,8
350,1216.866409,52.50181911,16,8
351,1224.671599,52.80776101,16,8
352,1232.506483,53.11486683,16,8
353,1240.371095,53.42313792,16,8
354,1248.265469,53.73257562,16,8
355,1256.189641,54.04318128,16,8
356,1264.143643,54.35495622,16,8
357,1272.127511,54.6679018,16,8
358,1280.141277,54.98201934,16,8
359,1288.184977,55.29731017,16,8
360,1296.258644,55.61377562,16,8
361,1304.362311,55.93141703,16,8
362,1312.496013,56.2502357,16,8
363,1320.659784,56.57023298,16,8
364,1328.853656,56.89141017,16,8
365,1337.077665,57.2137686,16,8
366,1345.331842,57.53730958,16,8
367,1353.616222,57.86203443,16,8
368,1361.930839,58.18794445,16,8
369,1370.275725,58.51504095,16,8
370,1378.650914,58.84332524,16,8
371,1387.056439,59.17279863,16,8
372,1395.492333,59.50346242,16,8
373,1403.95863,59.8353179,16,8
374,1412.455363,60.16836638,16,8
375,1420.982565,60.50260915,16,8
376,1429.540268,60.8380475,16,8
377,1438.128506,61.17468273,16,8
378,1446.747311,61.51251612,16,8
379,1455.396717,61.85154897,16,8
380,1464.076756,62.19178254,16,8
381,1472.787461,62.53321814,16,8
382,1481.528865,62.87585704,16,8
383,1490.300999,63.21970051,16,8
384,1499.103898,63.56474983,16,8
385,1507.937592,63.91100628,16,8
386,1516.802116,64.25847113,16,8
387,1525.6975,64.60714565,16,8
388,1534.623778,64.95703111,16,8
389,1543.580981,65.30812876,16,8
390,1552.569142,65.66043989,16,8
391,1561.588294,66.01396574,16,8
392,1570.638468,66.36870757,16,8
393,1579.719696,66.72466666,16,8
394,1588.83201,67.08184424,16,8
395,1597.975443,67.44024157,16,8
396,1607.150026,67.79985991,16,8
397,1616.355791,68.1607005,16,8
398,1625.59277,68.52276459,16,8
399,1634.860995,68.88605342,16,8
400,1644.160497,69.25056825,16,8
401,1653.491308,69.6163103,16,8
402,1662.85346,69.98328082,16,8
403,1672.246985,70.35148105,16,8
404,1681.671913,70.72091222,16,8
405,1691.128276,71.09157557,16,8
406,1700.616106,71.46347232,16,8
407,1710.135434,71.83660371,16,8
408,1719.686291,72.21097096,16,8
409,1729.268709,72.5865753,16,8
410,1738.882719,72.96341795,16,8
411,1748.528351,73.34150013,16,8
412,1758.205638,73.72082307,16,8
413,1767.91461,74.10138798,16,8
414,1777.655298,74.48319607,16,8
415,1787.427733,74.86624857,16,8
416,1797.231947,75.25054667,16,8
417,1807.067969,75.6360916,16,8
418,1816.935831,76.02288456,16,8
419,1826.835564,76.41092676,16,8
420,1836.767197,76.8002194,16,8
421,1846.730763,77.19076369,16,8
422,1856.726292,77.58256082,16,8
423,1866.753813,77.97561199,16,8
424,1876.813358,78.3699184,16,8
425,1886.904958,78.76548126,16,8
426,1897.028642,79.16230174,16,8
427,1907.184441,79.56038104,16,8
428,1917.372386,79.95972035,16,8
429,1927.592506,80.36032086,16,8
430,1937.844832,80.76218376,16,8
431,1948.129395,81.16531023,16,8
432,1958.446223,81.56970145,16,8
433,1968.795349,81.9753586,16,8
434,1979.1768,82.38228286,16,8
435,1989.590609,82.79047541,16,8
436,2000.036804,83.19993742,16,8
437,2010.515415,83.61067008,16,8
438,2021.026473,84.02267454,16,8
439,2031.570007,84.43595198,16,8
440,2042.146047,84.85050357,16,8
441,2052.754623,85.26633047,16,8
442,2063.395764,85.68343385,16,8
443,2074.069501,86.10181487,16,8
444,2084.775863,86.5214747,16,8
445,2095.514878,86.94241449,16,8
446,2106.286578,87.3646354,16,8
447,2117.090992,87.78813859,16,8
448,2127.928148,88.2129252,16,8
449,2138.798076,88.63899641,16,8
450,2149.700807,89.06635335,16,8
451,2160.636368,89.49499717,16,8
452,2171.604789,89.92492902,16,8
453,2182.6061,90.35615006,16,8
454,2193.64033,90.78866141,16,8
455,2204.707508,91.22246424,16,8
456,2215.807662,91.65755966,16,8
457,2226.940823,92.09394884,16,8
458,2238.107018,92.53163289,16,8
459,2249.306278,92.97061297,16,8
460,2260.538631,93.4108902,16,8
461,2271.804105,93.85246571,16,8
462,2283.102731,94.29534065,16,8
463,2294.434535,94.73951612,16,8
464,2305.799549,95.18499328,16,8
465,2317.197799,95.63177323,16,8
466,2328.629315,96.07985711,16,8
467,2340.094125,96.52924604,16,8
468,2351.592258,96.97994114,16,8
469,2363.123743,97.43194353,16,8
470,2374.688608,97.88525432,16,8
471,2386.286882,98.33987464,16,8
472,2397.918592,98.7958056,16,8
473,2409.583768,99.25304831,16,8
474,2421.282438,99.71160388,16,8
475,2433.01463,100.1714734,16,8
476,2444.780373,100.6326581,16,8
477,2456.579693,101.0951589,16,8
478,2468.412621,101.558977,16,8
479,2480.279184,102.0241135,16,8
480,2492.17941,102.4905695,16,8
481,2504.113327,102.9583462,16,8
482,2516.080964,103.4274445,16,8
483,2528.082348,103.8978656,16,8
484,2540.117507,104.3696106,16,8
485,2552.186469,104.8426807,16,8
486,2564.289262,105.3170768,16,8
487,2576.425914,105.7928,16,8
488,2588.596453,106.2698516,16,8
489,2600.800907,106.7482325,16,8
490,2613.039302,107.2279438,16,8
491,2405.223166,99.08212473,16,8
492,2407.441271,99.16906831,16,8
493,2409.669692,99.25641629,16,8
494,2411.908446,99.34416923,16,8
495,2414.157544,99.4323277,16,8
496,2416.417004,99.52089227,16,8
497,2418.686837,99.60986349,16,8
498,2420.96706,99.69924192,16,8
499,2423.257686,99.78902814,16,8
500,2425.558729,99.8792227,16,8
501,2427.870205,99.96982615,16,8
502,2430.192126,100.0608391,16,8
503,2432.524508,100.152262,16,8
504,2434.867363,100.2440955,16,8
505,2437.220708,100.3363401,16,8
506,2439.584555,100.4289963,16,8
507,2441.958918,100.5220648,16,8
508,2444.343812,100.6155461,16,8
509,2446.739251,100.7094407,16,8
510,2449.145249,100.8037492,16,8
511,2451.561819,100.898472,16,8
512,2453.988975,100.9936099,16,8
513,2456.426732,101.0891632,16,8
514,2458.875104,101.1851326,16,8
515,2461.334103,101.2815186,16,8
516,2463.803744,101.3783217,16,8
517,2466.284041,101.4755425,16,8
518,2468.775007,101.5731815,16,8
519,2471.276657,101.6712393,16,8
520,2473.789003,101.7697163,16,8
521,2476.31206,101.8686132,16,8
522,2478.845841,101.9679304,16,8
523,2481.390359,102.0676685,16,8
524,2483.945629,102.1678281,16,8
525,2486.511664,102.2684095,16,8
526,2489.088477,102.3694135,16,8
527,2491.676082,102.4708405,16,8
528,2494.274492,102.572691,16,8
529,2496.883721,102.6749656,16,8
530,2499.503782,102.7776647,16,8
531,2502.134689,102.880789,16,8
532,2504.776455,102.9843389,16,8
533,2507.429093,103.088315,16,8
534,2510.092616,103.1927178,16,8
535,2512.767039,103.2975478,16,8
536,2515.452373,103.4028055,16,8
537,2518.148633,103.5084914,16,8
538,2520.855831,103.6146061,16,8
539,2523.573981,103.7211501,16,8
540,2526.303095,103.8281238,16,8
541,2529.043188,103.9355279,16,8
542,2531.794272,104.0433628,16,8
543,2534.55636,104.151629,16,8
544,2537.329465,104.2603271,16,8
545,2357.703827,97.21949777,16,8
546,2359.692148,97.29743446,16,8
547,2361.690449,97.37576236,16,8
548,2363.698746,97.45448206,16,8
549,2365.717054,97.53359416,16,8
550,2367.745388,97.61309924,16,8
551,2369.783763,97.69299791,16,8
552,2371.832194,97.77329075,16,8
553,2373.890696,97.85397835,16,8
554,2375.959284,97.93506131,16,8
555,2378.037974,98.01654021,16,8
556,2380.12678,98.09841563,16,8
557,2382.225716,98.18068816,16,8
558,2384.334799,98.26335838,16,8
559,2386.454043,98.34642688,16,8
560,2388.583462,98.42989424,16,8
561,2390.723071,98.51376103,16,8
562,2392.872886,98.59802783,16,8
563,2395.032921,98.68269523,16,8
564,2397.20319,98.76776379,16,8
565,2399.383708,98.85323409,16,8
566,2401.57449,98.9391067,16,8
567,2403.77555,99.02538219,16,8
568,2405.986904,99.11206114,16,8
569,2408.208565,99.19914412,16,8
570,2410.440547,99.28663168,16,8
571,2412.682867,99.3745244,16,8
572,2414.935536,99.46282285,16,8
573,2417.198572,99.55152758,16,8
574,2419.471986,99.64063916,16,8
575,2421.755795,99.73015816,16,8
576,2424.050012,99.82008512,16,8
577,2426.354651,99.91042062,16,8
578,2428.669727,100.0011652,16,8
579,2430.995254,100.0923194,16,8
580,2433.331246,100.1838839,16,8
581,2435.677717,100.2758591,16,8
582,2438.034681,100.3682456,16,8
583,2440.402153,100.4610439,16,8
584,2442.780147,100.5542547,16,8
585,2445.168675,100.6478785,16,8
586,2447.567754,100.7419157,16,8
587,2449.977396,100.836367,16,8
588,2452.397615,100.9312329,16,8
589,2454.828425,101.026514,16,8
590,2457.269841,101.1222108,16,8
591,2459.721876,101.2183238,16,8
592,2462.184543,101.3148535,16,8
